SUMMARY COUNTS
TOTAL_ELEMENTS: 6740
TOTAL_BODIES: 6670
TOTAL_BONDS: 70
TOTAL_ANGLES: 60
TOTAL_DIHEDRALS: 50
TOTAL_IMPROPERS: 0

BONDS (# id1 id2 body | coords1 | coords2)

1   1209 1210   1209    6.210895 3.584576 15.124963    7.210895 3.584576 15.124963
2   1210 1211   1209    7.210895 3.584576 15.124963    8.210895 3.584576 15.124963
3   1211 1212   1209    8.210895 3.584576 15.124963    9.210895 3.584576 15.124963
4   1212 1213   1209    9.210895 3.584576 15.124963    10.210895 3.584576 15.124963
5   1213 1214   1209    10.210895 3.584576 15.124963    11.210895 3.584576 15.124963
6   1214 1215   1209    11.210895 3.584576 15.124963    12.210895 3.584576 15.124963
7   1215 1216   1209    12.210895 3.584576 15.124963    13.210895 3.584576 15.124963
8   1217 1218   1210    1.975250 8.224749 2.341171    2.975250 8.224749 2.341171
9   1218 1219   1210    2.975250 8.224749 2.341171    3.975250 8.224749 2.341171
10   1219 1220   1210    3.975250 8.224749 2.341171    4.975250 8.224749 2.341171
11   1220 1221   1210    4.975250 8.224749 2.341171    5.975250 8.224749 2.341171
12   1221 1222   1210    5.975250 8.224749 2.341171    6.975250 8.224749 2.341171
13   1222 1223   1210    6.975250 8.224749 2.341171    7.975250 8.224749 2.341171
14   1223 1224   1210    7.975250 8.224749 2.341171    8.975250 8.224749 2.341171
15   1225 1226   1211    4.542956 14.407553 1.355550    5.542956 14.407553 1.355550
16   1226 1227   1211    5.542956 14.407553 1.355550    6.542956 14.407553 1.355550
17   1227 1228   1211    6.542956 14.407553 1.355550    7.542956 14.407553 1.355550
18   1228 1229   1211    7.542956 14.407553 1.355550    8.542956 14.407553 1.355550
19   1229 1230   1211    8.542956 14.407553 1.355550    9.542956 14.407553 1.355550
20   1230 1231   1211    9.542956 14.407553 1.355550    10.542956 14.407553 1.355550
21   1231 1232   1211    10.542956 14.407553 1.355550    11.542956 14.407553 1.355550
22   1233 1234   1212    1.108170 4.892173 12.971856    2.108170 4.892173 12.971856
23   1234 1235   1212    2.108170 4.892173 12.971856    3.108170 4.892173 12.971856
24   1235 1236   1212    3.108170 4.892173 12.971856    4.108170 4.892173 12.971856
25   1236 1237   1212    4.108170 4.892173 12.971856    5.108170 4.892173 12.971856
26   1237 1238   1212    5.108170 4.892173 12.971856    6.108170 4.892173 12.971856
27   1238 1239   1212    6.108170 4.892173 12.971856    7.108170 4.892173 12.971856
28   1239 1240   1212    7.108170 4.892173 12.971856    8.108170 4.892173 12.971856
29   1241 1242   1213    2.966764 0.687045 15.312241    3.966764 0.687045 15.312241
30   1242 1243   1213    3.966764 0.687045 15.312241    4.966764 0.687045 15.312241
31   1243 1244   1213    4.966764 0.687045 15.312241    5.966764 0.687045 15.312241
32   1244 1245   1213    5.966764 0.687045 15.312241    6.966764 0.687045 15.312241
33   1245 1246   1213    6.966764 0.687045 15.312241    7.966764 0.687045 15.312241
34   1246 1247   1213    7.966764 0.687045 15.312241    8.966764 0.687045 15.312241
35   1247 1248   1213    8.966764 0.687045 15.312241    9.966764 0.687045 15.312241
36   1249 1250   1214    1.312668 8.385303 0.281211    2.312668 8.385303 0.281211
37   1250 1251   1214    2.312668 8.385303 0.281211    3.312668 8.385303 0.281211
38   1251 1252   1214    3.312668 8.385303 0.281211    4.312668 8.385303 0.281211
39   1252 1253   1214    4.312668 8.385303 0.281211    5.312668 8.385303 0.281211
40   1253 1254   1214    5.312668 8.385303 0.281211    6.312668 8.385303 0.281211
41   1254 1255   1214    6.312668 8.385303 0.281211    7.312668 8.385303 0.281211
42   1255 1256   1214    7.312668 8.385303 0.281211    8.312668 8.385303 0.281211
43   1257 1258   1215    2.239502 1.107338 4.084281    3.239502 1.107338 4.084281
44   1258 1259   1215    3.239502 1.107338 4.084281    4.239502 1.107338 4.084281
45   1259 1260   1215    4.239502 1.107338 4.084281    5.239502 1.107338 4.084281
46   1260 1261   1215    5.239502 1.107338 4.084281    6.239502 1.107338 4.084281
47   1261 1262   1215    6.239502 1.107338 4.084281    7.239502 1.107338 4.084281
48   1262 1263   1215    7.239502 1.107338 4.084281    8.239502 1.107338 4.084281
49   1263 1264   1215    8.239502 1.107338 4.084281    9.239502 1.107338 4.084281
50   1265 1266   1216    6.961168 5.718442 3.204472    7.961168 5.718442 3.204472
51   1266 1267   1216    7.961168 5.718442 3.204472    8.961168 5.718442 3.204472
52   1267 1268   1216    8.961168 5.718442 3.204472    9.961168 5.718442 3.204472
53   1268 1269   1216    9.961168 5.718442 3.204472    10.961168 5.718442 3.204472
54   1269 1270   1216    10.961168 5.718442 3.204472    11.961168 5.718442 3.204472
55   1270 1271   1216    11.961168 5.718442 3.204472    12.961168 5.718442 3.204472
56   1271 1272   1216    12.961168 5.718442 3.204472    13.961168 5.718442 3.204472
57   1273 1274   1217    2.617600 8.517636 11.663099    3.617600 8.517636 11.663099
58   1274 1275   1217    3.617600 8.517636 11.663099    4.617600 8.517636 11.663099
59   1275 1276   1217    4.617600 8.517636 11.663099    5.617600 8.517636 11.663099
60   1276 1277   1217    5.617600 8.517636 11.663099    6.617600 8.517636 11.663099
61   1277 1278   1217    6.617600 8.517636 11.663099    7.617600 8.517636 11.663099
62   1278 1279   1217    7.617600 8.517636 11.663099    8.617600 8.517636 11.663099
63   1279 1280   1217    8.617600 8.517636 11.663099    9.617600 8.517636 11.663099
64   1281 1282   1218    4.249861 9.773709 9.495424    5.249861 9.773709 9.495424
65   1282 1283   1218    5.249861 9.773709 9.495424    6.249861 9.773709 9.495424
66   1283 1284   1218    6.249861 9.773709 9.495424    7.249861 9.773709 9.495424
67   1284 1285   1218    7.249861 9.773709 9.495424    8.249861 9.773709 9.495424
68   1285 1286   1218    8.249861 9.773709 9.495424    9.249861 9.773709 9.495424
69   1286 1287   1218    9.249861 9.773709 9.495424    10.249861 9.773709 9.495424
70   1287 1288   1218    10.249861 9.773709 9.495424    11.249861 9.773709 9.495424

ANGLES (# A B C body | coordsA | coordsB | coordsC)

1   1209 1210 1211   1209    6.210895 3.584576 15.124963    7.210895 3.584576 15.124963    8.210895 3.584576 15.124963
2   1210 1211 1212   1209    7.210895 3.584576 15.124963    8.210895 3.584576 15.124963    9.210895 3.584576 15.124963
3   1211 1212 1213   1209    8.210895 3.584576 15.124963    9.210895 3.584576 15.124963    10.210895 3.584576 15.124963
4   1212 1213 1214   1209    9.210895 3.584576 15.124963    10.210895 3.584576 15.124963    11.210895 3.584576 15.124963
5   1213 1214 1215   1209    10.210895 3.584576 15.124963    11.210895 3.584576 15.124963    12.210895 3.584576 15.124963
6   1214 1215 1216   1209    11.210895 3.584576 15.124963    12.210895 3.584576 15.124963    13.210895 3.584576 15.124963
7   1217 1218 1219   1210    1.975250 8.224749 2.341171    2.975250 8.224749 2.341171    3.975250 8.224749 2.341171
8   1218 1219 1220   1210    2.975250 8.224749 2.341171    3.975250 8.224749 2.341171    4.975250 8.224749 2.341171
9   1219 1220 1221   1210    3.975250 8.224749 2.341171    4.975250 8.224749 2.341171    5.975250 8.224749 2.341171
10   1220 1221 1222   1210    4.975250 8.224749 2.341171    5.975250 8.224749 2.341171    6.975250 8.224749 2.341171
11   1221 1222 1223   1210    5.975250 8.224749 2.341171    6.975250 8.224749 2.341171    7.975250 8.224749 2.341171
12   1222 1223 1224   1210    6.975250 8.224749 2.341171    7.975250 8.224749 2.341171    8.975250 8.224749 2.341171
13   1225 1226 1227   1211    4.542956 14.407553 1.355550    5.542956 14.407553 1.355550    6.542956 14.407553 1.355550
14   1226 1227 1228   1211    5.542956 14.407553 1.355550    6.542956 14.407553 1.355550    7.542956 14.407553 1.355550
15   1227 1228 1229   1211    6.542956 14.407553 1.355550    7.542956 14.407553 1.355550    8.542956 14.407553 1.355550
16   1228 1229 1230   1211    7.542956 14.407553 1.355550    8.542956 14.407553 1.355550    9.542956 14.407553 1.355550
17   1229 1230 1231   1211    8.542956 14.407553 1.355550    9.542956 14.407553 1.355550    10.542956 14.407553 1.355550
18   1230 1231 1232   1211    9.542956 14.407553 1.355550    10.542956 14.407553 1.355550    11.542956 14.407553 1.355550
19   1233 1234 1235   1212    1.108170 4.892173 12.971856    2.108170 4.892173 12.971856    3.108170 4.892173 12.971856
20   1234 1235 1236   1212    2.108170 4.892173 12.971856    3.108170 4.892173 12.971856    4.108170 4.892173 12.971856
21   1235 1236 1237   1212    3.108170 4.892173 12.971856    4.108170 4.892173 12.971856    5.108170 4.892173 12.971856
22   1236 1237 1238   1212    4.108170 4.892173 12.971856    5.108170 4.892173 12.971856    6.108170 4.892173 12.971856
23   1237 1238 1239   1212    5.108170 4.892173 12.971856    6.108170 4.892173 12.971856    7.108170 4.892173 12.971856
24   1238 1239 1240   1212    6.108170 4.892173 12.971856    7.108170 4.892173 12.971856    8.108170 4.892173 12.971856
25   1241 1242 1243   1213    2.966764 0.687045 15.312241    3.966764 0.687045 15.312241    4.966764 0.687045 15.312241
26   1242 1243 1244   1213    3.966764 0.687045 15.312241    4.966764 0.687045 15.312241    5.966764 0.687045 15.312241
27   1243 1244 1245   1213    4.966764 0.687045 15.312241    5.966764 0.687045 15.312241    6.966764 0.687045 15.312241
28   1244 1245 1246   1213    5.966764 0.687045 15.312241    6.966764 0.687045 15.312241    7.966764 0.687045 15.312241
29   1245 1246 1247   1213    6.966764 0.687045 15.312241    7.966764 0.687045 15.312241    8.966764 0.687045 15.312241
30   1246 1247 1248   1213    7.966764 0.687045 15.312241    8.966764 0.687045 15.312241    9.966764 0.687045 15.312241
31   1249 1250 1251   1214    1.312668 8.385303 0.281211    2.312668 8.385303 0.281211    3.312668 8.385303 0.281211
32   1250 1251 1252   1214    2.312668 8.385303 0.281211    3.312668 8.385303 0.281211    4.312668 8.385303 0.281211
33   1251 1252 1253   1214    3.312668 8.385303 0.281211    4.312668 8.385303 0.281211    5.312668 8.385303 0.281211
34   1252 1253 1254   1214    4.312668 8.385303 0.281211    5.312668 8.385303 0.281211    6.312668 8.385303 0.281211
35   1253 1254 1255   1214    5.312668 8.385303 0.281211    6.312668 8.385303 0.281211    7.312668 8.385303 0.281211
36   1254 1255 1256   1214    6.312668 8.385303 0.281211    7.312668 8.385303 0.281211    8.312668 8.385303 0.281211
37   1257 1258 1259   1215    2.239502 1.107338 4.084281    3.239502 1.107338 4.084281    4.239502 1.107338 4.084281
38   1258 1259 1260   1215    3.239502 1.107338 4.084281    4.239502 1.107338 4.084281    5.239502 1.107338 4.084281
39   1259 1260 1261   1215    4.239502 1.107338 4.084281    5.239502 1.107338 4.084281    6.239502 1.107338 4.084281
40   1260 1261 1262   1215    5.239502 1.107338 4.084281    6.239502 1.107338 4.084281    7.239502 1.107338 4.084281
41   1261 1262 1263   1215    6.239502 1.107338 4.084281    7.239502 1.107338 4.084281    8.239502 1.107338 4.084281
42   1262 1263 1264   1215    7.239502 1.107338 4.084281    8.239502 1.107338 4.084281    9.239502 1.107338 4.084281
43   1265 1266 1267   1216    6.961168 5.718442 3.204472    7.961168 5.718442 3.204472    8.961168 5.718442 3.204472
44   1266 1267 1268   1216    7.961168 5.718442 3.204472    8.961168 5.718442 3.204472    9.961168 5.718442 3.204472
45   1267 1268 1269   1216    8.961168 5.718442 3.204472    9.961168 5.718442 3.204472    10.961168 5.718442 3.204472
46   1268 1269 1270   1216    9.961168 5.718442 3.204472    10.961168 5.718442 3.204472    11.961168 5.718442 3.204472
47   1269 1270 1271   1216    10.961168 5.718442 3.204472    11.961168 5.718442 3.204472    12.961168 5.718442 3.204472
48   1270 1271 1272   1216    11.961168 5.718442 3.204472    12.961168 5.718442 3.204472    13.961168 5.718442 3.204472
49   1273 1274 1275   1217    2.617600 8.517636 11.663099    3.617600 8.517636 11.663099    4.617600 8.517636 11.663099
50   1274 1275 1276   1217    3.617600 8.517636 11.663099    4.617600 8.517636 11.663099    5.617600 8.517636 11.663099
51   1275 1276 1277   1217    4.617600 8.517636 11.663099    5.617600 8.517636 11.663099    6.617600 8.517636 11.663099
52   1276 1277 1278   1217    5.617600 8.517636 11.663099    6.617600 8.517636 11.663099    7.617600 8.517636 11.663099
53   1277 1278 1279   1217    6.617600 8.517636 11.663099    7.617600 8.517636 11.663099    8.617600 8.517636 11.663099
54   1278 1279 1280   1217    7.617600 8.517636 11.663099    8.617600 8.517636 11.663099    9.617600 8.517636 11.663099
55   1281 1282 1283   1218    4.249861 9.773709 9.495424    5.249861 9.773709 9.495424    6.249861 9.773709 9.495424
56   1282 1283 1284   1218    5.249861 9.773709 9.495424    6.249861 9.773709 9.495424    7.249861 9.773709 9.495424
57   1283 1284 1285   1218    6.249861 9.773709 9.495424    7.249861 9.773709 9.495424    8.249861 9.773709 9.495424
58   1284 1285 1286   1218    7.249861 9.773709 9.495424    8.249861 9.773709 9.495424    9.249861 9.773709 9.495424
59   1285 1286 1287   1218    8.249861 9.773709 9.495424    9.249861 9.773709 9.495424    10.249861 9.773709 9.495424
60   1286 1287 1288   1218    9.249861 9.773709 9.495424    10.249861 9.773709 9.495424    11.249861 9.773709 9.495424

DIHEDRALS (# A B C D body | coords...)

1   1209 1210 1211 1212   1209    6.210895 3.584576 15.124963    7.210895 3.584576 15.124963    8.210895 3.584576 15.124963    9.210895 3.584576 15.124963
2   1210 1211 1212 1213   1209    7.210895 3.584576 15.124963    8.210895 3.584576 15.124963    9.210895 3.584576 15.124963    10.210895 3.584576 15.124963
3   1211 1212 1213 1214   1209    8.210895 3.584576 15.124963    9.210895 3.584576 15.124963    10.210895 3.584576 15.124963    11.210895 3.584576 15.124963
4   1212 1213 1214 1215   1209    9.210895 3.584576 15.124963    10.210895 3.584576 15.124963    11.210895 3.584576 15.124963    12.210895 3.584576 15.124963
5   1213 1214 1215 1216   1209    10.210895 3.584576 15.124963    11.210895 3.584576 15.124963    12.210895 3.584576 15.124963    13.210895 3.584576 15.124963
6   1217 1218 1219 1220   1210    1.975250 8.224749 2.341171    2.975250 8.224749 2.341171    3.975250 8.224749 2.341171    4.975250 8.224749 2.341171
7   1218 1219 1220 1221   1210    2.975250 8.224749 2.341171    3.975250 8.224749 2.341171    4.975250 8.224749 2.341171    5.975250 8.224749 2.341171
8   1219 1220 1221 1222   1210    3.975250 8.224749 2.341171    4.975250 8.224749 2.341171    5.975250 8.224749 2.341171    6.975250 8.224749 2.341171
9   1220 1221 1222 1223   1210    4.975250 8.224749 2.341171    5.975250 8.224749 2.341171    6.975250 8.224749 2.341171    7.975250 8.224749 2.341171
10   1221 1222 1223 1224   1210    5.975250 8.224749 2.341171    6.975250 8.224749 2.341171    7.975250 8.224749 2.341171    8.975250 8.224749 2.341171
11   1225 1226 1227 1228   1211    4.542956 14.407553 1.355550    5.542956 14.407553 1.355550    6.542956 14.407553 1.355550    7.542956 14.407553 1.355550
12   1226 1227 1228 1229   1211    5.542956 14.407553 1.355550    6.542956 14.407553 1.355550    7.542956 14.407553 1.355550    8.542956 14.407553 1.355550
13   1227 1228 1229 1230   1211    6.542956 14.407553 1.355550    7.542956 14.407553 1.355550    8.542956 14.407553 1.355550    9.542956 14.407553 1.355550
14   1228 1229 1230 1231   1211    7.542956 14.407553 1.355550    8.542956 14.407553 1.355550    9.542956 14.407553 1.355550    10.542956 14.407553 1.355550
15   1229 1230 1231 1232   1211    8.542956 14.407553 1.355550    9.542956 14.407553 1.355550    10.542956 14.407553 1.355550    11.542956 14.407553 1.355550
16   1233 1234 1235 1236   1212    1.108170 4.892173 12.971856    2.108170 4.892173 12.971856    3.108170 4.892173 12.971856    4.108170 4.892173 12.971856
17   1234 1235 1236 1237   1212    2.108170 4.892173 12.971856    3.108170 4.892173 12.971856    4.108170 4.892173 12.971856    5.108170 4.892173 12.971856
18   1235 1236 1237 1238   1212    3.108170 4.892173 12.971856    4.108170 4.892173 12.971856    5.108170 4.892173 12.971856    6.108170 4.892173 12.971856
19   1236 1237 1238 1239   1212    4.108170 4.892173 12.971856    5.108170 4.892173 12.971856    6.108170 4.892173 12.971856    7.108170 4.892173 12.971856
20   1237 1238 1239 1240   1212    5.108170 4.892173 12.971856    6.108170 4.892173 12.971856    7.108170 4.892173 12.971856    8.108170 4.892173 12.971856
21   1241 1242 1243 1244   1213    2.966764 0.687045 15.312241    3.966764 0.687045 15.312241    4.966764 0.687045 15.312241    5.966764 0.687045 15.312241
22   1242 1243 1244 1245   1213    3.966764 0.687045 15.312241    4.966764 0.687045 15.312241    5.966764 0.687045 15.312241    6.966764 0.687045 15.312241
23   1243 1244 1245 1246   1213    4.966764 0.687045 15.312241    5.966764 0.687045 15.312241    6.966764 0.687045 15.312241    7.966764 0.687045 15.312241
24   1244 1245 1246 1247   1213    5.966764 0.687045 15.312241    6.966764 0.687045 15.312241    7.966764 0.687045 15.312241    8.966764 0.687045 15.312241
25   1245 1246 1247 1248   1213    6.966764 0.687045 15.312241    7.966764 0.687045 15.312241    8.966764 0.687045 15.312241    9.966764 0.687045 15.312241
26   1249 1250 1251 1252   1214    1.312668 8.385303 0.281211    2.312668 8.385303 0.281211    3.312668 8.385303 0.281211    4.312668 8.385303 0.281211
27   1250 1251 1252 1253   1214    2.312668 8.385303 0.281211    3.312668 8.385303 0.281211    4.312668 8.385303 0.281211    5.312668 8.385303 0.281211
28   1251 1252 1253 1254   1214    3.312668 8.385303 0.281211    4.312668 8.385303 0.281211    5.312668 8.385303 0.281211    6.312668 8.385303 0.281211
29   1252 1253 1254 1255   1214    4.312668 8.385303 0.281211    5.312668 8.385303 0.281211    6.312668 8.385303 0.281211    7.312668 8.385303 0.281211
30   1253 1254 1255 1256   1214    5.312668 8.385303 0.281211    6.312668 8.385303 0.281211    7.312668 8.385303 0.281211    8.312668 8.385303 0.281211
31   1257 1258 1259 1260   1215    2.239502 1.107338 4.084281    3.239502 1.107338 4.084281    4.239502 1.107338 4.084281    5.239502 1.107338 4.084281
32   1258 1259 1260 1261   1215    3.239502 1.107338 4.084281    4.239502 1.107338 4.084281    5.239502 1.107338 4.084281    6.239502 1.107338 4.084281
33   1259 1260 1261 1262   1215    4.239502 1.107338 4.084281    5.239502 1.107338 4.084281    6.239502 1.107338 4.084281    7.239502 1.107338 4.084281
34   1260 1261 1262 1263   1215    5.239502 1.107338 4.084281    6.239502 1.107338 4.084281    7.239502 1.107338 4.084281    8.239502 1.107338 4.084281
35   1261 1262 1263 1264   1215    6.239502 1.107338 4.084281    7.239502 1.107338 4.084281    8.239502 1.107338 4.084281    9.239502 1.107338 4.084281
36   1265 1266 1267 1268   1216    6.961168 5.718442 3.204472    7.961168 5.718442 3.204472    8.961168 5.718442 3.204472    9.961168 5.718442 3.204472
37   1266 1267 1268 1269   1216    7.961168 5.718442 3.204472    8.961168 5.718442 3.204472    9.961168 5.718442 3.204472    10.961168 5.718442 3.204472
38   1267 1268 1269 1270   1216    8.961168 5.718442 3.204472    9.961168 5.718442 3.204472    10.961168 5.718442 3.204472    11.961168 5.718442 3.204472
39   1268 1269 1270 1271   1216    9.961168 5.718442 3.204472    10.961168 5.718442 3.204472    11.961168 5.718442 3.204472    12.961168 5.718442 3.204472
40   1269 1270 1271 1272   1216    10.961168 5.718442 3.204472    11.961168 5.718442 3.204472    12.961168 5.718442 3.204472    13.961168 5.718442 3.204472
41   1273 1274 1275 1276   1217    2.617600 8.517636 11.663099    3.617600 8.517636 11.663099    4.617600 8.517636 11.663099    5.617600 8.517636 11.663099
42   1274 1275 1276 1277   1217    3.617600 8.517636 11.663099    4.617600 8.517636 11.663099    5.617600 8.517636 11.663099    6.617600 8.517636 11.663099
43   1275 1276 1277 1278   1217    4.617600 8.517636 11.663099    5.617600 8.517636 11.663099    6.617600 8.517636 11.663099    7.617600 8.517636 11.663099
